# Reynolds:  0.29610E+05
# Mach:  0.15956E+00
#  r/R          c/R          V (m/s)      AoA (deg)    beta (deg)   phi (deg)    Cl           Cd           s factor     Ue (m/s)     dp/ds (Pa/m) delta (m)    delta* (m)   theta (m)    tau_w (Pa)   x trans/c    Ue (m/s)     dp/ds (Pa/m) delta (m)    delta* (m)   theta (m)    tau_w (Pa)   x trans/c
#  0.40903E+00  0.18042E+00  0.84416E+01  0.81936E+01  0.24890E+02  0.15871E+02  0.12119E+01  0.60674E-01  0.11595E+00  0.84053E+01  0.90808E+03  0.62324E-02  0.28142E-02  0.86179E-03  0.47047E-01  0.47315E+00 -0.73396E+01 -0.10205E+04  0.11468E-03  0.61961E-03  0.12299E-03  0.95062E-01  0.10000E+01
#  x/c                -Cp                    delta*/c              theta/c               Cf                    BC
 0.99206706157050E+00 -0.67818063088761E-01  0.38006416102277E-02  0.17032949345751E-02  0.46780427561576E-02  1
 0.97620309436915E+00 -0.10635643458557E+00  0.40421749994887E-02  0.18115065927717E-02  0.43006202715095E-02  1
 0.96034511791188E+00 -0.14408108053256E+00  0.42716290721428E-02  0.19145827723049E-02  0.39769229728107E-02  1
 0.94449712435965E+00 -0.16526270226644E+00  0.46674754411071E-02  0.19857375735552E-02  0.31981343717696E-02  1
 0.92866310336034E+00 -0.17684448360056E+00  0.48820223150723E-02  0.20143010923531E-02  0.28273638199947E-02  1
 0.91284704104426E+00 -0.18341268743688E+00  0.49739751657190E-02  0.20193514073014E-02  0.26590934533022E-02  1
 0.89705291902074E+00 -0.18712443874021E+00  0.49875823258352E-02  0.20111453363252E-02  0.26018156302998E-02  1
 0.88128471337577E+00 -0.18965339737911E+00  0.49605832481490E-02  0.19964755348463E-02  0.25988904196520E-02  1
 0.86554639367101E+00 -0.19180632879877E+00  0.49234623861860E-02  0.19801348034205E-02  0.26095959860054E-02  1
 0.84984192194451E+00 -0.19423040427208E+00  0.48969817145287E-02  0.19651452740962E-02  0.26051603102062E-02  1
 0.83417525171325E+00 -0.19710766845441E+00  0.48906661579696E-02  0.19526869112826E-02  0.25716293608320E-02  1
 0.81855032697790E+00 -0.20004506856696E+00  0.48978240336302E-02  0.19415121978780E-02  0.25182114918619E-02  1
 0.80297108122994E+00 -0.20261195188515E+00  0.49057347245531E-02  0.19296619934944E-02  0.24625204728616E-02  1
 0.78744143646137E+00 -0.20473039344721E+00  0.49077308010494E-02  0.19162229064785E-02  0.24132707132043E-02  1
 0.77196530217744E+00 -0.20642442860510E+00  0.49028807882063E-02  0.19011434688384E-02  0.23714231409911E-02  1
 0.75654657441241E+00 -0.20775863117753E+00  0.48897919331385E-02  0.18843318734755E-02  0.23385306869983E-02  1
 0.74118913474876E+00 -0.20856820764769E+00  0.48623482528018E-02  0.18651434969040E-02  0.23228287329240E-02  1
 0.72589684934000E+00 -0.20877211168570E+00  0.48137740272166E-02  0.18429315547338E-02  0.23340389775418E-02  1
 0.71067356793742E+00 -0.20842525360677E+00  0.47452666278226E-02  0.18180467368405E-02  0.23724469891396E-02  1
 0.69552312292093E+00 -0.20795552124185E+00  0.46682838338692E-02  0.17920346179673E-02  0.24240591247365E-02  1
 0.68044932833424E+00 -0.20766080617923E+00  0.45938411517332E-02  0.17663046833266E-02  0.24737315753603E-02  1
 0.66545597892474E+00 -0.20748405595268E+00  0.45220532606252E-02  0.17408572605965E-02  0.25209902980970E-02  1
 0.65054684918818E+00 -0.20721583685044E+00  0.44462745211416E-02  0.17148569282735E-02  0.25762333621326E-02  1
 0.63572569241844E+00 -0.20676200059969E+00  0.43619830454886E-02  0.16877763332126E-02  0.26480190852623E-02  1
 0.62099623976269E+00 -0.20622378948824E+00  0.42712587125301E-02  0.16599408211723E-02  0.27349934155519E-02  1
 0.60636219928208E+00 -0.20585603586141E+00  0.41813498500136E-02  0.16323310548883E-02  0.28259116087335E-02  1
 0.59182725501823E+00 -0.20588541708785E+00  0.40990417576027E-02  0.16058440648967E-02  0.29078486467433E-02  1
 0.57739506606585E+00 -0.20629383911760E+00  0.40263303037066E-02  0.15807053904065E-02  0.29751309752406E-02  1
 0.56306926565152E+00 -0.20703092857534E+00  0.39619164946348E-02  0.15566698288198E-02  0.30281204164980E-02  1
 0.54885346021908E+00 -0.20795192962966E+00  0.39027784093803E-02  0.15332542607834E-02  0.30713562048204E-02  1
 0.53475122852174E+00 -0.20891280748075E+00  0.38444438330311E-02  0.15098075864110E-02  0.31133973792880E-02  1
 0.52076612072110E+00 -0.20975166548638E+00  0.37820979960133E-02  0.14856874078209E-02  0.31649667554685E-02  1
 0.50690165749346E+00 -0.21040401933488E+00  0.37129787207014E-02  0.14605809611970E-02  0.32337167735320E-02  1
 0.49316132914349E+00 -0.21100327809630E+00  0.36388545508608E-02  0.14348021613932E-02  0.33175611311318E-02  1
 0.47954859472556E+00 -0.21174648747461E+00  0.35641578820020E-02  0.14089999511282E-02  0.34071775904406E-02  1
 0.46606688117296E+00 -0.21275317740149E+00  0.34927217458654E-02  0.13837017416520E-02  0.34928975985700E-02  1
 0.45271958243516E+00 -0.21409124871277E+00  0.34265165397249E-02  0.13591397139329E-02  0.35681928365142E-02  1
 0.43951005862344E+00 -0.21567427918315E+00  0.33650911284660E-02  0.13351840178701E-02  0.36325791585318E-02  1
 0.42644163516494E+00 -0.21740904715541E+00  0.33063664841592E-02  0.13114798847189E-02  0.36904630012284E-02  1
 0.41351760196559E+00 -0.21915886298255E+00  0.32475089801454E-02  0.12875958995487E-02  0.37495514846875E-02  1
 0.40074121258179E+00 -0.22082796157522E+00  0.31857941813884E-02  0.12631615316414E-02  0.38185855245691E-02  1
 0.38811568340144E+00 -0.22241512395178E+00  0.31202792388803E-02  0.12380907854531E-02  0.39019896279165E-02  1
 0.37564419283416E+00 -0.22402709406708E+00  0.30523941932482E-02  0.12126312038205E-02  0.39967553240087E-02  1
 0.36332988051118E+00 -0.22581309463914E+00  0.29848854047164E-02  0.11871854388117E-02  0.40942855963155E-02  1
 0.35117584649495E+00 -0.22783913693068E+00  0.29192155613377E-02  0.11619379790265E-02  0.41889081009059E-02  1
 0.33918515049870E+00 -0.22998598364981E+00  0.28542485390616E-02  0.11366975592960E-02  0.42843522345668E-02  1
 0.32736081111621E+00 -0.23220598892156E+00  0.27888977646417E-02  0.11112992440458E-02  0.43848897633559E-02  1
 0.31570580506183E+00 -0.23458255058160E+00  0.27247226289788E-02  0.10859469371782E-02  0.44839810165825E-02  1
 0.30422306642118E+00 -0.23725643876781E+00  0.26645336864427E-02  0.10609627943425E-02  0.45675193401229E-02  1
 0.29291548591247E+00 -0.24013243460927E+00  0.26082105900868E-02  0.10361930942303E-02  0.46325437346128E-02  1
 0.28178591015877E+00 -0.24285552779183E+00  0.25502630674970E-02  0.10107697354160E-02  0.47026572269851E-02  1
 0.27083714097143E+00 -0.24505136763360E+00  0.24828054617943E-02  0.98366625313998E-03  0.48195770878565E-02  1
 0.26007193464468E+00 -0.24676247958140E+00  0.24031161608715E-02  0.95474140144361E-03  0.50081428188273E-02  1
 0.24949300126180E+00 -0.24868227721876E+00  0.23180503429535E-02  0.92518018220854E-03  0.52441593877133E-02  1
 0.23910300401284E+00 -0.25147343816048E+00  0.22367036783898E-02  0.89633442900183E-03  0.54790411682520E-02  1
 0.22890455852420E+00 -0.25508748859714E+00  0.21612029215702E-02  0.86843146678841E-03  0.56948514560793E-02  1
 0.21890023220013E+00 -0.25924995601553E+00  0.20876096667545E-02  0.84081730399636E-03  0.59131851304333E-02  1
 0.20909254357641E+00 -0.26365440457714E+00  0.20110911162841E-02  0.81282314320086E-03  0.61721974509034E-02  1
 0.19948396168636E+00 -0.26853602055049E+00  0.19306573506932E-02  0.78446562167247E-03  0.64907096102755E-02  1
 0.19007690543921E+00 -0.27439970830184E+00  0.18501925999714E-02  0.75650090746751E-03  0.68481702662165E-02  1
 0.18087374301120E+00 -0.28185987777155E+00  0.17745856919430E-02  0.72973752972387E-03  0.72009577310474E-02  1
 0.17187679124937E+00 -0.29081230299347E+00  0.17053384970110E-02  0.70434610329400E-03  0.75256454971313E-02  1
 0.16308831508836E+00 -0.30119379343095E+00  0.16414230194908E-02  0.68003670592713E-03  0.78198380424572E-02  1
 0.15451052698015E+00 -0.31262148624287E+00  0.15811191516662E-02  0.65639807420677E-03  0.80930792358405E-02  1
 0.14614558633716E+00 -0.32506356808967E+00  0.15232663934496E-02  0.63311312860440E-03  0.83501293190046E-02  1
 0.13799559898857E+00 -0.33828908535289E+00  0.14670060845969E-02  0.60989579441635E-03  0.85945298952379E-02  1
 0.13006261665022E+00 -0.35213534288383E+00  0.14102143010946E-02  0.58627544615938E-03  0.88507899914559E-02  1
 0.12234863640812E+00 -0.36631878890841E+00  0.13497455366343E-02  0.56176641581645E-03  0.91742180693164E-02  1
 0.11485560021564E+00 -0.38128509418155E+00  0.12842139269357E-02  0.53639997931788E-03  0.96121723032825E-02  1
 0.10758539440467E+00 -0.39791566182846E+00  0.12162164074376E-02  0.51099129671938E-03  0.10155204661526E-01  1
 0.10053984921075E+00 -0.41752514543981E+00  0.11508199333219E-02  0.48667233411259E-03  0.10722743737779E-01  1
 0.93720738312309E-01 -0.44023763627233E+00  0.10910147900340E-02  0.46402093085668E-03  0.11242850814204E-01  1
 0.87129778384140E-01 -0.46616946530484E+00  0.10374466620409E-02  0.44298056490631E-03  0.11662100102208E-01  1
 0.80768628665251E-01 -0.49424625430251E+00  0.98816883808256E-03  0.42289318923313E-03  0.11992638732136E-01  1
 0.74638890541154E-01 -0.52403933888496E+00  0.94001157586007E-03  0.40292834174401E-03  0.12291159513161E-01  1
 0.68742107140729E-01 -0.55510764483368E+00  0.89056893971396E-03  0.38265179541699E-03  0.12631013872404E-01  1
 0.63079762947743E-01 -0.58839927315914E+00  0.84036644232141E-03  0.36241474005519E-03  0.13006907033834E-01  1
 0.57653283427148E-01 -0.62440198771346E+00  0.79168397960088E-03  0.34290190675863E-03  0.13348464483383E-01  1
 0.52464034666217E-01 -0.66355814009711E+00  0.74647912286426E-03  0.32449339827333E-03  0.13545610217384E-01  1
 0.47513323030650E-01 -0.70446036999589E+00  0.70385117219386E-03  0.30686309365959E-03  0.13600496818693E-01  1
 0.42802394835693E-01 -0.74678253087599E+00  0.66260170616087E-03  0.28964491143861E-03  0.13512229250149E-01  1
 0.38332436032394E-01 -0.78972209571273E+00  0.62192765675241E-03  0.27265432371032E-03  0.13281330837061E-01  1
 0.34104571909040E-01 -0.83320555116872E+00  0.58233497732825E-03  0.25599591849361E-03  0.12813329087352E-01  1
 0.30119866807873E-01 -0.87562286187181E+00  0.54335720330436E-03  0.23950733365410E-03  0.12070844555713E-01  1
 0.26379323857149E-01 -0.91584634568340E+00  0.50447040518559E-03  0.22277928316990E-03  0.10940903145263E-01  1
 0.22883884718605E-01 -0.95129165934527E+00  0.46098040572818E-03  0.20377009918971E-03  0.94402910835514E-02  1
 0.19634429350400E-01 -0.97954603597625E+00  0.45459955900791E-03  0.20317417724897E-03  0.69678195916794E-02  1
 0.16631775785591E-01 -0.99677467987129E+00  0.87232955963076E-03  0.39117917472231E-03  0.51044936992834E-03  1
 0.13876679926199E-01 -0.99880910896067E+00  0.69730131139721E-03  0.31269117103014E-03  0.17678409130361E-03  1
 0.11369835352910E-01 -0.98048016603091E+00  0.38995344602826E-03  0.17437479926391E-03  0.53921076864264E-02  1
 0.91118731504758E-02 -0.93579955056771E+00  0.35504570669813E-03  0.15882742460905E-03  0.11494558129103E-01  1
 0.71033617488364E-02 -0.85892135556855E+00  0.34194775607601E-03  0.15329240431085E-03  0.18349001928944E-01  1
 0.53448067800247E-02 -0.74310421005808E+00  0.32834628253432E-03  0.14718930473316E-03  0.26248220629701E-01  1
 0.38366509508745E-02 -0.58429327609478E+00  0.31599852566764E-03  0.14165880865735E-03  0.35090275272727E-01  1
 0.25792739315716E-02 -0.37821085851939E+00  0.31042205459002E-03  0.13896546399433E-03  0.43890755015885E-01  1
 0.15729922600740E-02 -0.11726321537588E+00  0.31245115900315E-03  0.13930892757314E-03  0.51805935599602E-01  1
 0.81805926242545E-03  0.21676153061746E+00  0.30532818366522E-03  0.13684171132506E-03  0.63299505761756E-01  1
 0.31466498898136E-03  0.60119349230741E+00  0.28313140163812E-03  0.12686865992166E-03  0.78551216039855E-01  1

 0.12587233313022E-03  0.93039402537001E+00  0.28094456283429E-03  0.12527698008223E-03  0.86074636260348E-01  1
 0.31466498898136E-03  0.11346218930685E+01  0.31213480580048E-03  0.13355331991141E-03  0.74420055043384E-01  1
 0.81805926242545E-03  0.12658351269964E+01  0.36776055789946E-03  0.15239315368815E-03  0.60583334578466E-01  1
 0.15729922600740E-02  0.14270353755454E+01  0.41084456973241E-03  0.17180595125838E-03  0.57474700623823E-01  1
 0.25792739315716E-02  0.16215800852726E+01  0.43173246491737E-03  0.18349177137848E-03  0.59120806564200E-01  1
 0.38366509508745E-02  0.17884586751433E+01  0.45744790552721E-03  0.19386827700365E-03  0.57255688731407E-01  1
 0.53448067800247E-02  0.19055396056072E+01  0.49620022590834E-03  0.20718801317019E-03  0.52136166545029E-01  1
 0.71033617488364E-02  0.19920784772322E+01  0.53957709679573E-03  0.22223731766861E-03  0.47187644918436E-01  1
 0.91118731504758E-02  0.20590639826125E+01  0.58423334842673E-03  0.23814123887324E-03  0.43047330359938E-01  1
 0.11369835352910E-01  0.21084873615205E+01  0.63295324228596E-03  0.25507609630866E-03  0.39017958892478E-01  1
 0.13876679926199E-01  0.21338965820223E+01  0.68942983834974E-03  0.27358374916559E-03  0.34680386913399E-01  1
 0.16631775785591E-01  0.21397291951357E+01  0.75212605709588E-03  0.29350665155173E-03  0.30555838799037E-01  1
 0.19634429350400E-01  0.21358831133457E+01  0.81491768456434E-03  0.31400448339404E-03  0.27320079100096E-01  1
 0.22883884718605E-01  0.21317389030031E+01  0.87199991708182E-03  0.33402500312679E-03  0.25151994319999E-01  1
 0.26379323857149E-01  0.21288942432649E+01  0.92467246143213E-03  0.35350011498624E-03  0.23602393362097E-01  1
 0.30119866807873E-01  0.21246739671752E+01  0.97832121770845E-03  0.37303579003320E-03  0.22155142454497E-01  1
 0.34104571909040E-01  0.21165053949438E+01  0.10360946579188E-02  0.39308817868168E-03  0.20632174781243E-01  1
 0.38332436032394E-01  0.21052480080258E+01  0.10961370946295E-02  0.41351062959798E-03  0.19188414331448E-01  1
 0.42802394835693E-01  0.20938419866871E+01  0.11538374352714E-02  0.43375188760330E-03  0.18035725923660E-01  1
 0.47513323030650E-01  0.20845622224473E+01  0.12060800368140E-02  0.45333710883613E-03  0.17230050331956E-01  1
 0.52464034666217E-01  0.20776756101718E+01  0.12546181873297E-02  0.47237727404900E-03  0.16624405957673E-01  1
 0.57653283427148E-01  0.20707548342248E+01  0.13059583553479E-02  0.49163476208615E-03  0.15951435063675E-01  1
 0.63079762947743E-01  0.20601710456031E+01  0.13672462297571E-02  0.51207783668345E-03  0.15009715970417E-01  1
 0.68742107140729E-01  0.20440063755119E+01  0.14423811894473E-02  0.53430427540537E-03  0.13781649962514E-01  1
 0.74638890541154E-01  0.20225659905972E+01  0.15279251481693E-02  0.55794220257886E-03  0.12469163200093E-01  1
 0.80768628665251E-01  0.20003322188453E+01  0.16112884412769E-02  0.58159123474249E-03  0.11406988478977E-01  1
 0.87129778384140E-01  0.19814296097108E+01  0.16824253287670E-02  0.60417039753855E-03  0.10736337207206E-01  1
 0.93720738312309E-01  0.19648313516732E+01  0.17470705418645E-02  0.62613656074078E-03  0.10254399523478E-01  1
 0.10053984921075E+00  0.19468666651957E+01  0.18179299310372E-02  0.64870989337814E-03  0.97046703966435E-02  1
 0.10758539440467E+00  0.19266887317461E+01  0.18977500668889E-02  0.67222721803494E-03  0.90696094176084E-02  1
 0.11485560021564E+00  0.19063767097075E+01  0.19787313108163E-02  0.69596818612059E-03  0.84902689451454E-02  1
 0.12234863640812E+00  0.18875735661690E+01  0.20533488930227E-02  0.71919329880516E-03  0.80555087796851E-02  1
 0.13006261665022E+00  0.18704808598704E+01  0.21208210319108E-02  0.74177598298177E-03  0.77450922814655E-02  1
 0.13799559898857E+00  0.18545583172826E+01  0.21839957420135E-02  0.76393039938551E-03  0.75039540051188E-02  1
 0.14614558633716E+00  0.18396369589568E+01  0.22459696188376E-02  0.78591897768913E-03  0.72885867626710E-02  1
 0.15451052698015E+00  0.18251111437037E+01  0.23114625756352E-02  0.80818016731595E-03  0.70487582383036E-02  1
 0.16308831508836E+00  0.18101220974696E+01  0.23865839807932E-02  0.83131071283245E-03  0.67337050491457E-02  1
 0.17187679124937E+00  0.17940256141314E+01  0.24776843137370E-02  0.85591794284026E-03  0.63072013641804E-02  1
 0.18087374301120E+00  0.17765709713290E+01  0.25894863309800E-02  0.88237234983224E-03  0.57646991959966E-02  1
 0.19007690543921E+00  0.17584793251077E+01  0.27257631771495E-02  0.91080768080388E-03  0.51223313327842E-02  1
 0.19948396168636E+00  0.17405766589281E+01  0.28945143656989E-02  0.94144398289356E-03  0.43795688446477E-02  1
 0.20909254357641E+00  0.17231377401255E+01  0.31134276531273E-02  0.97464352233231E-03  0.35059545191246E-02  1
 0.21890023220013E+00  0.17057579649107E+01  0.34080876726535E-02  0.10100512643678E-02  0.24881649254697E-02  1
 0.22890455852420E+00  0.16877512060852E+01  0.37767250308194E-02  0.10447682578851E-02  0.14615032437550E-02  1
 0.23910300401284E+00  0.16683283499337E+01  0.40187367536072E-02  0.10740182043682E-02  0.10129239582755E-02  1
 0.24949300126180E+00  0.16472607497406E+01  0.38517770524394E-02  0.10949734105168E-02  0.17211873760808E-02  1
 0.26007193464468E+00  0.16243621185139E+01  0.36364344394009E-02  0.11092642860631E-02  0.26414319207702E-02  1
 0.27083714097143E+00  0.15999767860259E+01  0.34726395704554E-02  0.11203632497632E-02  0.34538188193471E-02  1
 0.28178591015877E+00  0.15740364309174E+01  0.33617936400299E-02  0.11307844866107E-02  0.40923591972493E-02  1
 0.29291548591247E+00  0.15466191911230E+01  0.32922678761697E-02  0.11417137229172E-02  0.45595366285616E-02  1
 0.30422306642118E+00  0.15170156444949E+01  0.32524662285481E-02  0.11534914114074E-02  0.48811334260144E-02  1
 0.31570580506183E+00  0.14846168062462E+01  0.32336118719861E-02  0.11660971769945E-02  0.50865279262063E-02  1
 0.32736081111621E+00  0.14482730830583E+01  0.32300015954241E-02  0.11794462158530E-02  0.51978337597787E-02  1
 0.33918515049870E+00  0.14085550452072E+01  0.32399570598390E-02  0.11936891207332E-02  0.52256844751834E-02  1
 0.35117584649495E+00  0.13668639297559E+01  0.32685084575878E-02  0.12096591842126E-02  0.51554198069018E-02  1
 0.36332988051118E+00  0.13260918761281E+01  0.33474863227588E-02  0.12312237052006E-02  0.48693328174641E-02  1
 0.37564419283416E+00  0.12886749118291E+01  0.35760107224144E-02  0.12685070991474E-02  0.40612939291352E-02  1
 0.38811568340144E+00  0.12551326143125E+01  0.44613803856833E-02  0.13473485946077E-02  0.17916843857941E-02  1
 0.40074121258179E+00  0.12273371317038E+01  0.60037866563984E-02  0.15281308543495E-02  0.29532661387781E-03 -1
 0.41351760196559E+00  0.12067840624562E+01  0.67745522092806E-02  0.17196180874785E-02  0.25171053349034E-03 -1
 0.42644163516494E+00  0.11912315577865E+01  0.75065680479163E-02  0.19003877077670E-02  0.22159920303344E-03 -1
 0.43951005862344E+00  0.11719673462775E+01  0.79119342870072E-02  0.19977796128321E-02  0.20322242483486E-03 -1
 0.45271958243516E+00  0.11364338597745E+01  0.80643107401728E-02  0.20317897433239E-02  0.18910942623844E-03 -1
 0.46606688117296E+00  0.10803032128140E+01  0.81828873033673E-02  0.20580821135426E-02  0.17452889472008E-03 -1
 0.47954859472556E+00  0.10120790374553E+01  0.83566631485892E-02  0.20985935247800E-02  0.15934472606843E-03  2
 0.49316132914349E+00  0.95183102393195E+00  0.53890394598030E-02  0.21454330834004E-02  0.21799348872575E-02  2
 0.50690165749346E+00  0.90546523002032E+00  0.49133596636978E-02  0.22286900972629E-02  0.34829765536918E-02  2
 0.52076612072110E+00  0.86731716576500E+00  0.46839133140581E-02  0.23190628729022E-02  0.45464290967977E-02  2
 0.53475122852174E+00  0.83350514943069E+00  0.45848164101188E-02  0.24143701482114E-02  0.53559136668363E-02  2
 0.54885346021908E+00  0.80122009307678E+00  0.45715127603850E-02  0.25152229754349E-02  0.59228983434005E-02  2
 0.56306926565152E+00  0.76906285622184E+00  0.46234755760833E-02  0.26232837939382E-02  0.62740944996319E-02  2
 0.57739506606585E+00  0.73620748507470E+00  0.47295322253384E-02  0.27401472435267E-02  0.64429125606914E-02  2
