# Reynolds:  0.43027E+05
# Mach:  0.27187E+00
#  r/R          c/R          V (m/s)      AoA (deg)    beta (deg)   phi (deg)    Cl           Cd           s factor     Ue (m/s)     dp/ds (Pa/m) delta (m)    delta* (m)   theta (m)    tau_w (Pa)   x trans/c    Ue (m/s)     dp/ds (Pa/m) delta (m)    delta* (m)   theta (m)    tau_w (Pa)   x trans/c
#  0.69173E+00  0.15387E+00  0.14384E+02  0.54519E+01  0.15449E+02  0.97883E+01  0.93595E+00  0.36667E-01  0.98538E-01  0.14722E+02  0.52510E+04  0.33656E-02  0.14867E-02  0.48127E-03  0.27363E+00  0.63090E+00 -0.13020E+02 -0.12090E+04  0.68677E-03 -0.26508E-03 -0.34476E-04  0.34023E+00  0.10000E+01
#  x/c                -Cp                    delta*/c              theta/c               Cf                    BC
 0.99206706157050E+00 -0.10618842018697E+00  0.12217892963831E-01  0.31087980330746E-02  0.19781649379260E-03 -1
 0.97620309436915E+00 -0.10879882452228E+00  0.12874587741531E-01  0.32867667591905E-02  0.20292469125227E-03 -1
 0.96034511791188E+00 -0.11140527936226E+00  0.13575648039428E-01  0.34790315004955E-02  0.20711546359535E-03 -1
 0.94449712435965E+00 -0.11541565811069E+00  0.13784452600333E-01  0.35468389962928E-02  0.21340501215763E-03 -1
 0.92866310336034E+00 -0.12080975337915E+00  0.13261190072078E-01  0.34251063842855E-02  0.23111031762095E-03 -1
 0.91284704104426E+00 -0.12740567554001E+00  0.11307127890745E-01  0.32440099405603E-02  0.78073344592883E-03  1
 0.89705291902074E+00 -0.13494404286819E+00  0.94802900297411E-02  0.31238874598148E-02  0.15824175908853E-02  1
 0.88128471337577E+00 -0.14264060982467E+00  0.88184097910942E-02  0.30423098102198E-02  0.19430606307437E-02  1
 0.86554639367101E+00 -0.14961411600693E+00  0.84508375362186E-02  0.29813796892793E-02  0.21421223067395E-02  1
 0.84984192194451E+00 -0.15545513742071E+00  0.82042190263132E-02  0.29308627303266E-02  0.22658369179697E-02  1
 0.83417525171325E+00 -0.15997311345637E+00  0.80091165701052E-02  0.28851669573827E-02  0.23586712385458E-02  1
 0.81855032697790E+00 -0.16338683678580E+00  0.78371647166779E-02  0.28417142738910E-02  0.24401209445017E-02  1
 0.80297108122994E+00 -0.16579388350424E+00  0.76758336501741E-02  0.27992983197203E-02  0.25197677686284E-02  1
 0.78744143646137E+00 -0.16758661492237E+00  0.75244811685964E-02  0.27578903329127E-02  0.25963369437961E-02  1
 0.77196530217744E+00 -0.16898434525998E+00  0.73850799064660E-02  0.27177250773037E-02  0.26663188932166E-02  1
 0.75654657441241E+00 -0.17013817511226E+00  0.72551346906782E-02  0.26785411726139E-02  0.27306661313879E-02  1
 0.74118913474876E+00 -0.17095350414818E+00  0.71262865452702E-02  0.26394272652244E-02  0.27980259141299E-02  1
 0.72589684934000E+00 -0.17136612763658E+00  0.69906438521441E-02  0.25995265019247E-02  0.28778902884304E-02  1
 0.71067356793742E+00 -0.17141851023233E+00  0.68493789058481E-02  0.25589957683661E-02  0.29702741451383E-02  1
 0.69552312292093E+00 -0.17140111945468E+00  0.67127111708343E-02  0.25190223021577E-02  0.30628612428851E-02  1
 0.68044932833424E+00 -0.17145868446893E+00  0.65866224533218E-02  0.24803062156235E-02  0.31469045320203E-02  1
 0.66545597892474E+00 -0.17146034042300E+00  0.64642035410020E-02  0.24420322186065E-02  0.32306466832607E-02  1
 0.65054684918818E+00 -0.17121465194618E+00  0.63348830708321E-02  0.24029660564476E-02  0.33296213686337E-02  1
 0.63572569241844E+00 -0.17075666349302E+00  0.61966067245020E-02  0.23629069695240E-02  0.34489715478904E-02  1
 0.62099623976269E+00 -0.17025459127416E+00  0.60557940691352E-02  0.23226827508146E-02  0.35810480119132E-02  1
 0.60636219928208E+00 -0.16990993201241E+00  0.59208687306952E-02  0.22833742541711E-02  0.37126926447610E-02  1
 0.59182725501823E+00 -0.16985066304450E+00  0.57968037269142E-02  0.22456244989070E-02  0.38339748954613E-02  1
 0.57739506606585E+00 -0.17002682380692E+00  0.56829775517562E-02  0.22093394184012E-02  0.39437828842971E-02  1
 0.56306926565152E+00 -0.17038609948068E+00  0.55763867068254E-02  0.21741015128603E-02  0.40458126480474E-02  1
 0.54885346021908E+00 -0.17085899400442E+00  0.54745445167741E-02  0.21395598867188E-02  0.41436828210521E-02  1
 0.53475122852174E+00 -0.17143469856296E+00  0.53761100235481E-02  0.21055189986692E-02  0.42393218390054E-02  1
 0.52076612072110E+00 -0.17209504825814E+00  0.52806038781598E-02  0.20718993921049E-02  0.43331694190751E-02  1
 0.50690165749346E+00 -0.17284359816318E+00  0.51877484831252E-02  0.20386474307414E-02  0.44253117483483E-02  1
 0.49316132914349E+00 -0.17366488576634E+00  0.50973136142644E-02  0.20057138043166E-02  0.45157724516045E-02  1
 0.47954859472556E+00 -0.17455775700380E+00  0.50090361326140E-02  0.19730429819596E-02  0.46046873347160E-02  1
 0.46606688117296E+00 -0.17550405050879E+00  0.49225786055362E-02  0.19405682901271E-02  0.46924268190765E-02  1
 0.45271958243516E+00 -0.17649148060700E+00  0.48374138052519E-02  0.19081984006290E-02  0.47799645406603E-02  1
 0.43951005862344E+00 -0.17749557631699E+00  0.47528920757524E-02  0.18758293762857E-02  0.48687798836093E-02  1
 0.42644163516494E+00 -0.17850204596651E+00  0.46684619593961E-02  0.18433767788030E-02  0.49603627632839E-02  1
 0.41351760196559E+00 -0.17950962843722E+00  0.45840562904708E-02  0.18108259302427E-02  0.50549767338292E-02  1
 0.40074121258179E+00 -0.18053175442311E+00  0.45000651701566E-02  0.17782216542415E-02  0.51515337791451E-02  1
 0.38811568340144E+00 -0.18157748872297E+00  0.44168822100949E-02  0.17456012088219E-02  0.52486606680534E-02  1
 0.37564419283416E+00 -0.18263181641103E+00  0.43341850216829E-02  0.17128990399294E-02  0.53471475562979E-02  1
 0.36332988051118E+00 -0.18364589340144E+00  0.42505239069206E-02  0.16799053189040E-02  0.54517931359999E-02  1
 0.35117584649495E+00 -0.18456375973633E+00  0.41641121273676E-02  0.16463918119126E-02  0.55696403379183E-02  1
 0.33918515049870E+00 -0.18540854537112E+00  0.40750228845555E-02  0.16124072852545E-02  0.57020628496748E-02  1
 0.32736081111621E+00 -0.18631928646044E+00  0.39869159621168E-02  0.15784702970645E-02  0.58364667207889E-02  1
 0.31570580506183E+00 -0.18749187449695E+00  0.39063711016470E-02  0.15454079416694E-02  0.59451674484757E-02  1
 0.30422306642118E+00 -0.18903560851381E+00  0.38391248878481E-02  0.15137661381935E-02  0.59985491003570E-02  1
 0.29291548591247E+00 -0.19071109246353E+00  0.37847371720329E-02  0.14830869785192E-02  0.59902390594483E-02  1
 0.28178591015877E+00 -0.19201848183840E+00  0.37350543562913E-02  0.14518877301136E-02  0.59487880121524E-02  1
 0.27083714097143E+00 -0.19244196609113E+00  0.36761125945904E-02  0.14182012774858E-02  0.59325205859998E-02  1
 0.26007193464468E+00 -0.19147336399626E+00  0.35924583567660E-02  0.13803236774074E-02  0.60162634879857E-02  1
 0.24949300126180E+00 -0.18924055003896E+00  0.34762197568886E-02  0.13378269945027E-02  0.62563612705975E-02  1
 0.23910300401284E+00 -0.18608206594236E+00  0.33307692898408E-02  0.12916967140572E-02  0.66756968845541E-02  1
 0.22890455852420E+00 -0.18292343895951E+00  0.31708240427816E-02  0.12442384974359E-02  0.72426007574235E-02  1
 0.21890023220013E+00 -0.18093319719685E+00  0.30165939932142E-02  0.11984048478260E-02  0.78653670255224E-02  1
 0.20909254357641E+00 -0.18083702371459E+00  0.28825717271192E-02  0.11563084277877E-02  0.84377904884015E-02  1
 0.19948396168636E+00 -0.18287595789968E+00  0.27725627223808E-02  0.11183362737325E-02  0.88911867155672E-02  1
 0.19007690543921E+00 -0.18608021950051E+00  0.26781278747150E-02  0.10829064820701E-02  0.92548252169831E-02  1
 0.18087374301120E+00 -0.18977490922515E+00  0.25880766183952E-02  0.10481216253161E-02  0.96060118540820E-02  1
 0.17187679124937E+00 -0.19373113206372E+00  0.24975801107213E-02  0.10132128544805E-02  0.99875792017149E-02  1
 0.16308831508836E+00 -0.19809538500878E+00  0.24063050754180E-02  0.97815625035047E-03  0.10407338118377E-01  1
 0.15451052698015E+00 -0.20288973066884E+00  0.23145561660928E-02  0.94303065417796E-03  0.10868389915230E-01  1
 0.14614558633716E+00 -0.20826485291998E+00  0.22225840714655E-02  0.90791185204507E-03  0.11374359910532E-01  1
 0.13799559898857E+00 -0.21433145404949E+00  0.21310786939751E-02  0.87293680590483E-03  0.11922895546471E-01  1
 0.13006261665022E+00 -0.22126867042114E+00  0.20402746785981E-02  0.83815603458428E-03  0.12515765987403E-01  1
 0.12234863640812E+00 -0.22900771915104E+00  0.19492839607448E-02  0.80348068297450E-03  0.13175960634357E-01  1
 0.11485560021564E+00 -0.23791174225547E+00  0.18584763463148E-02  0.76907203293547E-03  0.13910804847155E-01  1
 0.10758539440467E+00 -0.24830344916823E+00  0.17701062423858E-02  0.73535445873975E-03  0.14688699855508E-01  1
 0.10053984921075E+00 -0.26052935728670E+00  0.16859176660807E-02  0.70252991822501E-03  0.15466200725705E-01  1
 0.93720738312309E-01 -0.27413739378452E+00  0.16042413958382E-02  0.67018083133771E-03  0.16268363476027E-01  1
 0.87129778384140E-01 -0.28912752580915E+00  0.15221687799707E-02  0.63780768410466E-03  0.17169336044427E-01  1
 0.80768628665251E-01 -0.30571557868235E+00  0.14387571763497E-02  0.60544893226175E-03  0.18228896330823E-01  1
 0.74638890541154E-01 -0.32502304946659E+00  0.13562401197553E-02  0.57377509599119E-03  0.19421964009193E-01  1
 0.68742107140729E-01 -0.34760688470192E+00  0.12775566252229E-02  0.54351557739915E-03  0.20676390286794E-01  1
 0.63079762947743E-01 -0.37420159292584E+00  0.12050297083701E-02  0.51507071025436E-03  0.21878698915137E-01  1
 0.57653283427148E-01 -0.40396801865734E+00  0.11380020199771E-02  0.48809810659619E-03  0.23004756007804E-01  1
 0.52464034666217E-01 -0.43658752277551E+00  0.10742979690858E-02  0.46188589631239E-03  0.24091251979997E-01  1
 0.47513323030650E-01 -0.47120244542957E+00  0.10113077746747E-02  0.43572089079572E-03  0.25244462793504E-01  1
 0.42802394835693E-01 -0.50821464836066E+00  0.94767158568524E-03  0.40928572551179E-03  0.26544855540987E-01  1
 0.38332436032394E-01 -0.54784814532201E+00  0.88310490880316E-03  0.38270488765403E-03  0.28071947948991E-01  1
 0.34104571909040E-01 -0.59163196288106E+00  0.81977636040823E-03  0.35667947263244E-03  0.29731082662020E-01  1
 0.30119866807873E-01 -0.63958562175702E+00  0.75901323908865E-03  0.33163995374660E-03  0.31455405398830E-01  1
 0.26379323857149E-01 -0.69204504819131E+00  0.70163049420596E-03  0.30765496319273E-03  0.33138593180466E-01  1
 0.22883884718605E-01 -0.74687929755319E+00  0.64576506360550E-03  0.28409747488639E-03  0.35036040708591E-01  1
 0.19634429350400E-01 -0.80342901521819E+00  0.59004738792446E-03  0.26025114317237E-03  0.37579015908911E-01  1
 0.16631775785591E-01 -0.85914359837771E+00  0.55636753518198E-03  0.24728155785371E-03  0.41393737790991E-01  1
 0.13876679926199E-01 -0.91188804838635E+00  0.76889237287772E-03  0.34443617787386E-03  0.26612350784722E-01  1
 0.11369835352910E-01 -0.95646603006670E+00  0.87058890712361E-03  0.39039861305992E-03  0.79584935424503E-02  1
 0.91118731504758E-02 -0.98748704701599E+00  0.68470728138778E-03  0.30677321351549E-03  0.26613591929557E-02  1
 0.71033617488364E-02 -0.99701128270958E+00  0.41792101414681E-03  0.18689491783521E-03  0.88284966603516E-03  1
 0.53448067800247E-02 -0.97609966206382E+00  0.39173709994680E-03  0.17517152626295E-03  0.47954813649712E-02  1
 0.38366509508745E-02 -0.91512171889979E+00  0.38338914507858E-03  0.17154867409058E-03  0.13316015194943E-01  1
 0.25792739315716E-02 -0.80271642311435E+00  0.37598396051324E-03  0.16831306993446E-03  0.24549937680556E-01  1
 0.15729922600740E-02 -0.62593359910797E+00  0.36829702411882E-03  0.16507019831864E-03  0.38095870700669E-01  1
 0.81805926242545E-03 -0.37041070213707E+00  0.34585482922796E-03  0.15496409930876E-03  0.55830431570394E-01  1
 0.31466498898136E-03 -0.58309089257707E-01  0.30828123961645E-03  0.13814563766050E-03  0.79381811781905E-01  1

 0.12587233313022E-03  0.21436452710167E+00  0.30837302159865E-03  0.13704268903334E-03  0.90426013811060E-01  1
 0.31466498898136E-03  0.37997000116120E+00  0.35528910403060E-03  0.14981982849474E-03  0.75778348337842E-01  1
 0.81805926242545E-03  0.47733227757330E+00  0.44502172757236E-03  0.18000799190074E-03  0.57879052501082E-01  1
 0.15729922600740E-02  0.60206546277227E+00  0.51757806826593E-03  0.21223227635679E-03  0.54601005495919E-01  1
 0.25792739315716E-02  0.77924806866661E+00  0.54753014363453E-03  0.23117897797279E-03  0.59214480185817E-01  1
 0.38366509508745E-02  0.96659437485178E+00  0.57429505344007E-03  0.24475088892484E-03  0.61441953135960E-01  1
 0.53448067800247E-02  0.11195924483306E+01  0.61772004907010E-03  0.26047962965819E-03  0.58507455727886E-01  1
 0.71033617488364E-02  0.12262727928766E+01  0.67911106895146E-03  0.28043545263069E-03  0.52444424696228E-01  1
 0.91118731504758E-02  0.12963629321662E+01  0.75226699620098E-03  0.30417718873400E-03  0.46123555095794E-01  1
 0.11369835352910E-01  0.13495840992010E+01  0.82588360302506E-03  0.32917913782089E-03  0.41347745228376E-01  1
 0.13876679926199E-01  0.13910459473865E+01  0.89836078179977E-03  0.35455991769335E-03  0.37670437665760E-01  1
 0.16631775785591E-01  0.14228528511473E+01  0.97256865355402E-03  0.38048564895687E-03  0.34465117250458E-01  1
 0.19634429350400E-01  0.14455506504668E+01  0.10495604286580E-02  0.40709244613421E-03  0.31560660193188E-01  1
 0.22883884718605E-01  0.14621637957060E+01  0.11281829869532E-02  0.43417687240140E-03  0.29014213387818E-01  1
 0.26379323857149E-01  0.14734330452938E+01  0.12097243680125E-02  0.46190485486947E-03  0.26687361400609E-01  1
 0.30119866807873E-01  0.14784829621497E+01  0.13003274847014E-02  0.49104799916704E-03  0.24241904042148E-01  1
 0.34104571909040E-01  0.14740402232383E+01  0.14067025091283E-02  0.52245058294908E-03  0.21498712213032E-01  1
 0.38332436032394E-01  0.14615714211795E+01  0.15270081913629E-02  0.55590700064728E-03  0.18771387018205E-01  1
 0.42802394835693E-01  0.14456863286406E+01  0.16460549431652E-02  0.58967858903093E-03  0.16645354980492E-01  1
 0.47513323030650E-01  0.14330397245169E+01  0.17381794770490E-02  0.62098657281919E-03  0.15649221853180E-01  1
 0.52464034666217E-01  0.14287927814069E+01  0.17911674530457E-02  0.64812883096855E-03  0.15769420540228E-01  1
 0.57653283427148E-01  0.14317657766203E+01  0.18209010897097E-02  0.67180260208279E-03  0.16401293106024E-01  1
 0.63079762947743E-01  0.14381809401725E+01  0.18516212269824E-02  0.69427883950822E-03  0.16885814893947E-01  1
 0.68742107140729E-01  0.14436035239054E+01  0.18986614363189E-02  0.71776291573765E-03  0.16863271132497E-01  1
 0.74638890541154E-01  0.14456971043582E+01  0.19644340390315E-02  0.74314661932437E-03  0.16355664921591E-01  1
 0.80768628665251E-01  0.14450277187222E+01  0.20417618614685E-02  0.76993944733316E-03  0.15623846237059E-01  1
 0.87129778384140E-01  0.14433161542266E+01  0.21198674704768E-02  0.79695736201814E-03  0.14941938406956E-01  1
 0.93720738312309E-01  0.14424425866045E+01  0.21901157919787E-02  0.82310694520854E-03  0.14464912442987E-01  1
 0.10053984921075E+00  0.14430226219733E+01  0.22525964778399E-02  0.84826857981490E-03  0.14152961805600E-01  1
 0.10758539440467E+00  0.14434749271823E+01  0.23184154993040E-02  0.87370252770850E-03  0.13791350551085E-01  1
 0.11485560021564E+00  0.14407814522312E+01  0.24021053745967E-02  0.90127849719065E-03  0.13162031969968E-01  1
 0.12234863640812E+00  0.14331030551518E+01  0.25142227933361E-02  0.93242404561204E-03  0.12182807033940E-01  1
 0.13006261665022E+00  0.14197667486921E+01  0.26548529788983E-02  0.96710158196950E-03  0.10967626769586E-01  1
 0.13799559898857E+00  0.14036123286927E+01  0.28070028378124E-02  0.10032842900872E-02  0.98096663856660E-02  1
 0.14614558633716E+00  0.13882102521130E+01  0.29428408594481E-02  0.10381094546493E-02  0.89873160658401E-02  1
 0.15451052698015E+00  0.13759145014577E+01  0.30399422576865E-02  0.10694440111299E-02  0.86170398391072E-02  1
 0.16308831508836E+00  0.13673431371494E+01  0.30996786817245E-02  0.10971715568907E-02  0.85958486066981E-02  1
 0.17187679124937E+00  0.13604791931566E+01  0.31461246471241E-02  0.11232004995571E-02  0.86734452821894E-02  1
 0.18087374301120E+00  0.13530244475708E+01  0.32021702783756E-02  0.11497211581634E-02  0.86493926920559E-02  1
 0.19007690543921E+00  0.13439063778775E+01  0.32762343207868E-02  0.11778112088425E-02  0.84678736782277E-02  1
 0.19948396168636E+00  0.13331078865327E+01  0.33647112636502E-02  0.12073195209091E-02  0.81784114437271E-02  1
 0.20909254357641E+00  0.13212347063306E+01  0.34607373566676E-02  0.12376579990816E-02  0.78484043598620E-02  1
 0.21890023220013E+00  0.13081743382073E+01  0.35622420943686E-02  0.12686483326985E-02  0.75000800970896E-02  1
 0.22890455852420E+00  0.12935068845890E+01  0.36736122432205E-02  0.13007032954015E-02  0.71137577775194E-02  1
 0.23910300401284E+00  0.12763772455650E+01  0.37992524713723E-02  0.13342031834523E-02  0.66763756772645E-02  1
 0.24949300126180E+00  0.12569607844652E+01  0.39377936412184E-02  0.13689579889479E-02  0.62129662251947E-02  1
 0.26007193464468E+00  0.12350024670631E+01  0.40863751636999E-02  0.14045939086133E-02  0.57504881980237E-02  1
 0.27083714097143E+00  0.12100844689711E+01  0.42498565217401E-02  0.14412855422538E-02  0.52788144547155E-02  1
 0.28178591015877E+00  0.11804701847255E+01  0.44437544855196E-02  0.14798706031718E-02  0.47520206539668E-02  1
 0.29291548591247E+00  0.11460400213749E+01  0.46942680479127E-02  0.15214951854782E-02  0.41150469293080E-02  1
 0.30422306642118E+00  0.11081648069851E+01  0.50545628659532E-02  0.15670959410532E-02  0.32996820682648E-02  1
 0.31570580506183E+00  0.10705219673943E+01  0.55782944844922E-02  0.16175962046793E-02  0.23562908069016E-02  1
 0.32736081111621E+00  0.10355901586152E+01  0.58790861743788E-02  0.16631244023446E-02  0.18190271745544E-02  1
 0.33918515049870E+00  0.10054349518351E+01  0.63224723673788E-02  0.17138171738103E-02  0.11260194145913E-02  1
 0.35117584649495E+00  0.98407070104476E+00  0.69033262567389E-02  0.17710731636522E-02  0.49348274520721E-03 -1
 0.36332988051118E+00  0.97129814295231E+00  0.71282513056386E-02  0.18196723658829E-02  0.43720335275646E-03 -1
 0.37564419283416E+00  0.96534760990689E+00  0.73674717339086E-02  0.18726026327122E-02  0.39058959594469E-03 -1
 0.38811568340144E+00  0.96261756080797E+00  0.76243873370096E-02  0.19305790927091E-02  0.35088943045197E-03 -1
 0.40074121258179E+00  0.96138093047309E+00  0.79001151532428E-02  0.19937461071270E-02  0.31657528545230E-03 -1
 0.41351760196559E+00  0.96059502536291E+00  0.81917233211987E-02  0.20612490007293E-02  0.28667570298916E-03 -1
 0.42644163516494E+00  0.95997646382268E+00  0.84977142943361E-02  0.21326470832770E-02  0.26050389321720E-03 -1
 0.43951005862344E+00  0.95941439221043E+00  0.88212628425656E-02  0.22087202969421E-02  0.23749817537968E-03 -1
 0.45271958243516E+00  0.95889137342794E+00  0.91666796544297E-02  0.22905169198568E-02  0.21721175401903E-03 -1
 0.46606688117296E+00  0.95839816322638E+00  0.95363090532725E-02  0.23785899010750E-02  0.19930531470590E-03 -1
 0.47954859472556E+00  0.95793672961896E+00  0.99334848941897E-02  0.24737666988795E-02  0.18351253994724E-03 -1
 0.49316132914349E+00  0.95750337623013E+00  0.10368098970754E-01  0.25785213863199E-02  0.16951108465265E-03 -1
 0.50690165749346E+00  0.95710072188203E+00  0.10852869738490E-01  0.26959880832461E-02  0.15700344259373E-03 -1
 0.52076612072110E+00  0.95672505977998E+00  0.11385269863943E-01  0.28254512496951E-02  0.14589255037015E-03 -1
 0.53475122852174E+00  0.95637794649375E+00  0.11927775680268E-01  0.29574620928074E-02  0.13634695594070E-03 -1
 0.54885346021908E+00  0.95605424901578E+00  0.12399281356520E-01  0.30717850908771E-02  0.12871677435461E-03 -1
 0.56306926565152E+00  0.95575255465643E+00  0.12736562220790E-01  0.31528383596557E-02  0.12295305761585E-03 -1
 0.57739506606585E+00  0.95546612636480E+00  0.12933837360015E-01  0.31993838992039E-02  0.11870130304889E-03 -1
