# Reynolds:  0.39043E+05
# Mach:  0.38640E+00
#  r/R          c/R          V (m/s)      AoA (deg)    beta (deg)   phi (deg)    Cl           Cd           s factor     Ue (m/s)     dp/ds (Pa/m) delta (m)    delta* (m)   theta (m)    tau_w (Pa)   x trans/c    Ue (m/s)     dp/ds (Pa/m) delta (m)    delta* (m)   theta (m)    tau_w (Pa)   x trans/c
#  0.99014E+00  0.98237E-01  0.20443E+02  0.19159E+01  0.11809E+02  0.96240E+01  0.55690E+00  0.36423E-01  0.81155E-01  0.21075E+02  0.23140E+05  0.17363E-02  0.62427E-03  0.21099E-03  0.45055E+00  0.74467E+00 -0.18152E+02 -0.21675E+04  0.15369E-02  0.28481E-03  0.11537E-03  0.84936E+00  0.93290E+00
#  x/c                -Cp                    delta*/c              theta/c               Cf                    BC
 0.99206706157050E+00  0.53544548877177E-02  0.60698629573426E-02  0.27751387603315E-02  0.57350009399787E-02  2
 0.97620309436915E+00 -0.39112411889990E-01  0.66715885236639E-02  0.29776752721914E-02  0.48749354048471E-02  2
 0.96034511791188E+00 -0.82572674929784E-01  0.79322566919249E-02  0.31680712159822E-02  0.31879030572975E-02  2
 0.94449712435965E+00 -0.97955508821562E-01  0.88643705579154E-02  0.32574717270427E-02  0.23457667252152E-02  2
 0.92866310336034E+00 -0.10283613358609E+00  0.88203975291624E-02  0.32291253906410E-02  0.23154953336244E-02  2
 0.91284704104426E+00 -0.10521692817454E+00  0.85501289909348E-02  0.31774732827233E-02  0.24497611622306E-02  2
 0.89705291902074E+00 -0.10749473521229E+00  0.83363833560575E-02  0.31312176230072E-02  0.25456527051002E-02  2
 0.88128471337577E+00 -0.10978358351786E+00  0.82046471263655E-02  0.30935712196035E-02  0.25695110227907E-02  2
 0.86554639367101E+00 -0.11152036518627E+00  0.81274107657519E-02  0.30609349484275E-02  0.25307888237889E-02  2
 0.84984192194451E+00 -0.11241018818605E+00  0.81319705993286E-02  0.30312054013270E-02  0.24225376680069E-02  2
 0.83417525171325E+00 -0.11248718233837E+00  0.82388851019586E-02  0.30042799497121E-02  0.23785412528167E-02 -1
 0.81855032697790E+00 -0.11245439293484E+00  0.81956995732137E-02  0.29795942392828E-02  0.23686500721981E-02 -1
 0.80297108122994E+00 -0.11266132437781E+00  0.81704226203396E-02  0.29565070603890E-02  0.23424156068751E-02 -1
 0.78744143646137E+00 -0.11292266403591E+00  0.81496895678424E-02  0.29334127072875E-02  0.23114367210992E-02 -1
 0.77196530217744E+00 -0.11298612139094E+00  0.81188472894523E-02  0.29087244906316E-02  0.22886144814407E-02 -1
 0.75654657441241E+00 -0.11284244127591E+00  0.80737608173363E-02  0.28821009375763E-02  0.22774094459858E-02 -1
 0.74118913474876E+00 -0.11258673195851E+00  0.80206601003005E-02  0.28542810419682E-02  0.22722814636693E-02 -1
 0.72589684934000E+00 -0.11232111457867E+00  0.79693924264621E-02  0.28263012548453E-02  0.22643002909291E-02 -1
 0.71067356793742E+00 -0.11203403333877E+00  0.79252478652715E-02  0.27986546376052E-02  0.22485027348014E-02 -1
 0.69552312292093E+00 -0.11157443803337E+00  0.78802845359956E-02  0.27704978716890E-02  0.22321847617927E-02 -1
 0.68044932833424E+00 -0.11056474029863E+00  0.78119322029350E-02  0.27396793028890E-02  0.22370765536583E-02 -1
 0.66545597892474E+00 -0.10874198382756E+00  0.76977929105409E-02  0.27042120053340E-02  0.22866258174094E-02 -1
 0.65054684918818E+00 -0.10613087711990E+00  0.75399910072500E-02  0.26644142021420E-02  0.23837744608357E-02 -1
 0.63572569241844E+00 -0.10338120592199E+00  0.73704859118058E-02  0.26234556301186E-02  0.25004311112133E-02 -1
 0.62099623976269E+00 -0.10102651084846E+00  0.72202364590051E-02  0.25845422512820E-02  0.26031751205029E-02 -1
 0.60636219928208E+00 -0.99081673375179E-01  0.70952300105556E-02  0.25483554217272E-02  0.26818429892268E-02 -1
 0.59182725501823E+00 -0.97378332569229E-01  0.69868082844460E-02  0.25139609208610E-02  0.27436535398418E-02 -1
 0.57739506606585E+00 -0.95736641335690E-01  0.68858848410404E-02  0.24803443916486E-02  0.27982336281282E-02 -1
 0.56306926565152E+00 -0.94102116386152E-01  0.67881256374126E-02  0.24470134653629E-02  0.28504246209699E-02 -1
 0.54885346021908E+00 -0.92469086239080E-01  0.66932912151357E-02  0.24139261382922E-02  0.29001495959630E-02 -1
 0.53475122852174E+00 -0.90861371069219E-01  0.66030312099414E-02  0.23812343382055E-02  0.29446038032687E-02 -1
 0.52076612072110E+00 -0.89322414420154E-01  0.65206273997176E-02  0.23492350668251E-02  0.29781283346852E-02 -1
 0.50690165749346E+00 -0.87917795826539E-01  0.64494057588024E-02  0.23181590788653E-02  0.29940615681825E-02 -1
 0.49316132914349E+00 -0.86590506879046E-01  0.63867949326834E-02  0.22875399738033E-02  0.29940138392494E-02 -1
 0.47954859472556E+00 -0.85015156423394E-01  0.63183806769498E-02  0.22556981876766E-02  0.29983223566039E-02 -1
 0.46606688117296E+00 -0.82765729257024E-01  0.62231331759662E-02  0.22205300625595E-02  0.30407855489944E-02 -1
 0.45271958243516E+00 -0.79632956993103E-01  0.60631291116114E-02  0.21804254771270E-02  0.31572379738568E-02  1
 0.43951005862344E+00 -0.76102517600680E-01  0.58906657289102E-02  0.21382928858272E-02  0.33161508442738E-02  1
 0.42644163516494E+00 -0.72700791513053E-01  0.57294929969351E-02  0.20966291096347E-02  0.34789085480625E-02  1
 0.41351760196559E+00 -0.69658264320603E-01  0.55862387181194E-02  0.20567217954762E-02  0.36247951857321E-02  1
 0.40074121258179E+00 -0.66991617510215E-01  0.54605363601067E-02  0.20186845225894E-02  0.37481864263538E-02  1
 0.38811568340144E+00 -0.64544133183949E-01  0.53476681231524E-02  0.19820133808245E-02  0.38539849249277E-02  1
 0.37564419283416E+00 -0.62227398940679E-01  0.52432981594976E-02  0.19462095030876E-02  0.39481393800881E-02  1
 0.36332988051118E+00 -0.59976221215468E-01  0.51453717000565E-02  0.19110224842203E-02  0.40329044677491E-02  1
 0.35117584649495E+00 -0.57777218879185E-01  0.50533638213282E-02  0.18763633826038E-02  0.41075286181596E-02  1
 0.33918515049870E+00 -0.55609432091516E-01  0.49674918986267E-02  0.18422084404049E-02  0.41695697540576E-02  1
 0.32736081111621E+00 -0.53444512228795E-01  0.48878853156499E-02  0.18085019631843E-02  0.42167116200085E-02  1
 0.31570580506183E+00 -0.51233550641507E-01  0.48142715216453E-02  0.17751224664842E-02  0.42476481489528E-02  1
 0.30422306642118E+00 -0.48894806256622E-01  0.47459168645276E-02  0.17418831763045E-02  0.42625177752772E-02  1
 0.29291548591247E+00 -0.46368091580597E-01  0.46824749274604E-02  0.17086272154476E-02  0.42606463586160E-02  1
 0.28178591015877E+00 -0.43595420456328E-01  0.46254068452479E-02  0.16753597233152E-02  0.42365790087941E-02  1
 0.27083714097143E+00 -0.40639483265008E-01  0.45798060406245E-02  0.16423712878321E-02  0.41740983810126E-02  1
 0.26007193464468E+00 -0.37543905567187E-01  0.45526300463175E-02  0.16099401270185E-02  0.40513161031420E-02  1
 0.24949300126180E+00 -0.34159272804724E-01  0.45422449691062E-02  0.15773188325682E-02  0.38717448745850E-02  1
 0.23910300401284E+00 -0.29635678711215E-01  0.45202959317550E-02  0.15418177761421E-02  0.37126394852217E-02  1
 0.22890455852420E+00 -0.23000074539331E-01  0.44156036300008E-02  0.14997895862153E-02  0.37442051086119E-02  1
 0.21890023220013E+00 -0.13637416201368E-01  0.42119046156564E-02  0.14497597801649E-02  0.40785297979754E-02  1
 0.20909254357641E+00 -0.27894978007651E-02  0.39579956118563E-02  0.13948164279037E-02  0.46692137278766E-02  1
 0.19948396168636E+00  0.78650683223549E-02  0.37107141906438E-02  0.13401605918139E-02  0.53689644232239E-02  1
 0.19007690543921E+00  0.16981112863723E-01  0.35031261411054E-02  0.12896447445062E-02  0.60252485149120E-02  1
 0.18087374301120E+00  0.23857998707039E-01  0.33440389138768E-02  0.12447589688479E-02  0.65302096134641E-02  1
 0.17187679124937E+00  0.29112023258657E-01  0.32248193774052E-02  0.12046121310870E-02  0.68607127010314E-02  1
 0.16308831508836E+00  0.33411791462372E-01  0.31320372711445E-02  0.11673638917118E-02  0.70459935110385E-02  1
 0.15451052698015E+00  0.37697888290026E-01  0.30504734476218E-02  0.11308994739314E-02  0.71549824140317E-02  1
 0.14614558633716E+00  0.43093612239397E-01  0.29591572210774E-02  0.10927541611365E-02  0.73242685920972E-02  1
 0.13799559898857E+00  0.50364650365464E-01  0.28386449056490E-02  0.10510863986398E-02  0.77228929340162E-02  1
 0.13006261665022E+00  0.59357657040567E-01  0.26869770276839E-02  0.10061250110045E-02  0.84466677600542E-02  1
 0.12234863640812E+00  0.68191689873620E-01  0.25262428356185E-02  0.96067145098383E-03  0.93999415431497E-02  1
 0.11485560021564E+00  0.74859223858428E-01  0.23815497814844E-02  0.91788457294563E-03  0.10361670810935E-01  1
 0.10758539440467E+00  0.78917609189003E-01  0.22622310775852E-02  0.87893330339726E-03  0.11166194913709E-01  1
 0.10053984921075E+00  0.80792548422962E-01  0.21648609195746E-02  0.84309277740084E-03  0.11764767435283E-01  1
 0.93720738312309E-01  0.82082373973976E-01  0.20777010927491E-02  0.80842584270134E-03  0.12256870745414E-01  1
 0.87129778384140E-01  0.84148915497502E-01  0.19866793463608E-02  0.77292955087001E-03  0.12847041721870E-01  1
 0.80768628665251E-01  0.87269801003681E-01  0.18851774081051E-02  0.73592958296312E-03  0.13694850294553E-01  1
 0.74638890541154E-01  0.90287618384183E-01  0.17784976469843E-02  0.69842020399848E-03  0.14778245583666E-01  1
 0.68742107140729E-01  0.91533047712463E-01  0.16775625160511E-02  0.66193371565767E-03  0.15894350758831E-01  1
 0.63079762947743E-01  0.90957143814136E-01  0.15850281850851E-02  0.62658596044479E-03  0.16934048610305E-01  1
 0.57653283427148E-01  0.90611905620787E-01  0.14911606929663E-02  0.59086646873105E-03  0.18145620182523E-01  1
 0.52464034666217E-01  0.90714887543338E-01  0.13888710726694E-02  0.55406806506962E-03  0.19859230206028E-01  1
 0.47513323030650E-01  0.88486634729840E-01  0.12849664682764E-02  0.51756986486232E-03  0.22013492077021E-01  1
 0.42802394835693E-01  0.81016135300843E-01  0.11898191644080E-02  0.48296170574920E-03  0.24221350512049E-01  1
 0.38332436032394E-01  0.69233606874994E-01  0.11037662302200E-02  0.44999349094158E-03  0.26348181686548E-01  1
 0.34104571909040E-01  0.54751031230963E-01  0.10195860380379E-02  0.41724984717483E-03  0.28722110141100E-01  1
 0.30119866807873E-01  0.38022745589182E-01  0.93167944726353E-03  0.38407009740553E-03  0.31896110602108E-01  1
 0.26379323857149E-01  0.14170838614153E-01  0.84340551670783E-03  0.35167010803102E-03  0.35999552434166E-01  1
 0.22883884718605E-01 -0.22464774249619E-01  0.76232167849653E-03  0.32182784497968E-03  0.40555416664642E-01  1
 0.19634429350400E-01 -0.76204353213824E-01  0.69316075848584E-03  0.29533487216003E-03  0.44716724213161E-01  1
 0.16631775785591E-01 -0.14237882059048E+00  0.63301144281768E-03  0.27120932902183E-03  0.48364230117010E-01  1
 0.13876679926199E-01 -0.21830205186004E+00  0.57628821566615E-03  0.24784917139266E-03  0.51962447478336E-01  1
 0.11369835352910E-01 -0.30222794768864E+00  0.51924851796184E-03  0.22454623887946E-03  0.56297444632169E-01  1
 0.91118731504758E-02 -0.40088394460803E+00  0.46487075377603E-03  0.20251090117068E-03  0.60917142258845E-01  1
 0.71033617488364E-02 -0.51771447461824E+00  0.41670146867531E-03  0.18320257929863E-03  0.64817305633267E-01  1
 0.53448067800247E-02 -0.65444755713165E+00  0.38122548460574E-03  0.16885962127258E-03  0.65134742180989E-01  1
 0.38366509508745E-02 -0.79308090181111E+00  0.38434923306667E-03  0.17184352663514E-03  0.58429007839027E-01  1
 0.25792739315716E-02 -0.91067295558631E+00  0.62963336040798E-03  0.28229925997941E-03  0.14155358221548E-01  1
 0.15729922600740E-02 -0.98121829018078E+00  0.70881632594868E-03  0.31775491443895E-03  0.38003449090177E-02  1
 0.81805926242545E-03 -0.99213444650516E+00  0.34391529562737E-03  0.15370574185430E-03  0.35950348017703E-02  1
 0.31466498898136E-03 -0.94687323954328E+00  0.31343596388013E-03  0.14045547783210E-03  0.13897403833645E-01  1

 0.12587233313022E-03 -0.86544268313738E+00  0.28767183601495E-03  0.12884557441188E-03  0.27522491704633E-01  1
 0.31466498898136E-03 -0.76607651058829E+00  0.30661635007062E-03  0.13407944289135E-03  0.34622774475636E-01  1
 0.81805926242545E-03 -0.64676593218021E+00  0.36934334347589E-03  0.15886088322356E-03  0.36484176580681E-01  1
 0.15729922600740E-02 -0.49170380229359E+00  0.42180063828799E-03  0.18359006533099E-03  0.41584166080537E-01  1
 0.25792739315716E-02 -0.30466511699806E+00  0.43998277969669E-03  0.19384027191342E-03  0.49719576497505E-01  1
 0.38366509508745E-02 -0.11554947817425E+00  0.46189770521930E-03  0.20242333583533E-03  0.54098813658396E-01  1
 0.53448067800247E-02  0.38684268722649E-01  0.50575516962902E-03  0.21743829444235E-03  0.52171802242490E-01  1
 0.71033617488364E-02  0.14579319186153E+00  0.57371440019561E-03  0.24012663079998E-03  0.46038872040565E-01  1
 0.91118731504758E-02  0.20618280576190E+00  0.66300234173354E-03  0.26954544102436E-03  0.38598390335555E-01  1
 0.11369835352910E-01  0.24363948891954E+00  0.75438258943430E-03  0.30130539657186E-03  0.33322010064093E-01  1
 0.13876679926199E-01  0.27909558028353E+00  0.82792618470072E-03  0.33116368918106E-03  0.31146806773008E-01  1
 0.16631775785591E-01  0.32351649696410E+00  0.87843675175477E-03  0.35633231622546E-03  0.31087815831099E-01  1
 0.19634429350400E-01  0.37443582829681E+00  0.92208523935579E-03  0.37841991519641E-03  0.31191448941936E-01  1
 0.22883884718605E-01  0.42222622513439E+00  0.97741122727875E-03  0.40124847281596E-03  0.30094712494718E-01  1
 0.26379323857149E-01  0.45804829853349E+00  0.10511361003118E-02  0.42716377441912E-03  0.27780076463363E-01  1
 0.30119866807873E-01  0.48250891519749E+00  0.11369143047912E-02  0.45588135468410E-03  0.25180284749467E-01  1
 0.34104571909040E-01  0.50131068374173E+00  0.12193318510905E-02  0.48499787850389E-03  0.23251310426334E-01  1
 0.38332436032394E-01  0.52174911668806E+00  0.12839410626156E-02  0.51170038561189E-03  0.22407792969868E-01  1
 0.42802394835693E-01  0.54678567498434E+00  0.13329245586357E-02  0.53550476767384E-03  0.22246447996517E-01  1
 0.47513323030650E-01  0.57331596992015E+00  0.13822211476946E-02  0.55844419340743E-03  0.21980565867949E-01  1
 0.52464034666217E-01  0.59633461604323E+00  0.14431566220261E-02  0.58265228201290E-03  0.21214669729135E-01  1
 0.57653283427148E-01  0.61500231126630E+00  0.15131537151345E-02  0.60833608390821E-03  0.20186671538422E-01  1
 0.63079762947743E-01  0.63181444598951E+00  0.15814876041159E-02  0.63405444081862E-03  0.19322438213855E-01  1
 0.68742107140729E-01  0.64940208379398E+00  0.16411416850119E-02  0.65851637419947E-03  0.18789748561310E-01  1
 0.74638890541154E-01  0.66792954355752E+00  0.16952841919749E-02  0.68190934011608E-03  0.18427420592091E-01  1
 0.80768628665251E-01  0.68580208655936E+00  0.17519652108592E-02  0.70539819763513E-03  0.17993279030763E-01  1
 0.87129778384140E-01  0.70152210570148E+00  0.18145886449845E-02  0.72967311351473E-03  0.17421611435129E-01  1
 0.93720738312309E-01  0.71568282818569E+00  0.18793272861564E-02  0.75432880094778E-03  0.16838010655941E-01  1
 0.10053984921075E+00  0.72944569820333E+00  0.19417360804586E-02  0.77870883554058E-03  0.16346755196384E-01  1
 0.10758539440467E+00  0.74293012386738E+00  0.20032414749021E-02  0.80294051366562E-03  0.15902319280553E-01  1
 0.11485560021564E+00  0.75499057706915E+00  0.20684535164425E-02  0.82771457634278E-03  0.15407618373552E-01  1
 0.12234863640812E+00  0.76524224977660E+00  0.21389125775990E-02  0.85336612371628E-03  0.14849832169536E-01  1
 0.13006261665022E+00  0.77391698261506E+00  0.22121182613907E-02  0.87960520917961E-03  0.14288734227436E-01  1
 0.13799559898857E+00  0.78174093873754E+00  0.22851676042652E-02  0.90600482979310E-03  0.13775435474113E-01  1
 0.14614558633716E+00  0.78875589142237E+00  0.23582889768232E-02  0.93255743500175E-03  0.13299409096108E-01  1
 0.15451052698015E+00  0.79467806521547E+00  0.24341258281035E-02  0.95962414887642E-03  0.12819341540633E-01  1
 0.16308831508836E+00  0.79915380563066E+00  0.25132139751114E-02  0.98730100047560E-03  0.12331415939341E-01  1
 0.17187679124937E+00  0.80287300306024E+00  0.25914647454993E-02  0.10150247043415E-02  0.11891190106738E-01  1
 0.18087374301120E+00  0.80660217804080E+00  0.26652157242637E-02  0.10422322840938E-02  0.11534493907129E-01  1
 0.19007690543921E+00  0.81031773181777E+00  0.27365771002392E-02  0.10691245879173E-02  0.11224521185640E-01  1
 0.19948396168636E+00  0.81328715630722E+00  0.28107379256961E-02  0.10963879754427E-02  0.10899956930488E-01  1
 0.20909254357641E+00  0.81515418169329E+00  0.28911675442551E-02  0.11245502217886E-02  0.10531454472593E-01  1
 0.21890023220013E+00  0.81566594770615E+00  0.29792174997065E-02  0.11538672035810E-02  0.10116913957173E-01  1
 0.22890455852420E+00  0.81473568842697E+00  0.30768275906234E-02  0.11846515074322E-02  0.96519846355361E-02  1
 0.23910300401284E+00  0.81188543065368E+00  0.31861176142729E-02  0.12172137046178E-02  0.91336081566278E-02  1
 0.24949300126180E+00  0.80729969369150E+00  0.33070189200992E-02  0.12515480430761E-02  0.85800173697912E-02  1
 0.26007193464468E+00  0.80109209838451E+00  0.34377226597038E-02  0.12873939572084E-02  0.80178499664180E-02  1
 0.27083714097143E+00  0.79363852129922E+00  0.35777170367584E-02  0.13246223570918E-02  0.74597542895996E-02  1
 0.28178591015877E+00  0.78466439057554E+00  0.37308346834205E-02  0.13635774962573E-02  0.68905417307669E-02  1
 0.29291548591247E+00  0.77395330574515E+00  0.39043283376984E-02  0.14049009572245E-02  0.62858042050942E-02  1
 0.30422306642118E+00  0.76123548642166E+00  0.41018162208204E-02  0.14487186321717E-02  0.56502955957246E-02  1
 0.31570580506183E+00  0.74731981868830E+00  0.43178886488584E-02  0.14942015773593E-02  0.50286864089675E-02  1
 0.32736081111621E+00  0.73272133145036E+00  0.45499127116946E-02  0.15408195267767E-02  0.44403358389541E-02  1
 0.33918515049870E+00  0.71720437045399E+00  0.48234395310064E-02  0.15901418847479E-02  0.38138752070828E-02  1
 0.35117584649495E+00  0.70007185903091E+00  0.52055744601544E-02  0.16453076350935E-02  0.30181475520395E-02  1
 0.36332988051118E+00  0.68253366809919E+00  0.58191013289500E-02  0.17075033516785E-02  0.19393677260306E-02  1
 0.37564419283416E+00  0.66783922486297E+00  0.67848256742573E-02  0.17725041411947E-02  0.71719560095071E-03  1
 0.38811568340144E+00  0.65778115331147E+00  0.69588183738804E-02  0.18051119847354E-02  0.63150991980656E-03  1
 0.40074121258179E+00  0.65224837996288E+00  0.70875658227224E-02  0.18267259138116E-02  0.55404526279894E-03  1
 0.41351760196559E+00  0.64910940806875E+00  0.71854895250511E-02  0.18402578737934E-02  0.47614523682786E-03  1
 0.42644163516494E+00  0.64718093359416E+00  0.72751238760048E-02  0.18493182544652E-02  0.38894155574413E-03  1
 0.43951005862344E+00  0.64575252425549E+00  0.73633223455855E-02  0.18565143756754E-02  0.31390202629804E-03 -1
 0.45271958243516E+00  0.64468023266912E+00  0.74109305955322E-02  0.18612447025082E-02  0.28281466992339E-03 -1
 0.46606688117296E+00  0.64381860129823E+00  0.74528825411286E-02  0.18651211793647E-02  0.25495786872551E-03 -1
 0.47954859472556E+00  0.64308311119977E+00  0.74900380869319E-02  0.18684207354168E-02  0.23028277588011E-03 -1
 0.49316132914349E+00  0.64239374624704E+00  0.75230091658570E-02  0.18714071868346E-02  0.20899919926417E-03 -1
 0.50690165749346E+00  0.64171982077293E+00  0.75522691847692E-02  0.18742315359030E-02  0.19107243782493E-03 -1
 0.52076612072110E+00  0.64104693107010E+00  0.75782156947282E-02  0.18769785596464E-02  0.17632242771691E-03 -1
 0.53475122852174E+00  0.64037118010482E+00  0.76012321108014E-02  0.18796823362202E-02  0.16441719818119E-03 -1
 0.54885346021908E+00  0.63969197656400E+00  0.76217369699471E-02  0.18823607659348E-02  0.15495100527788E-03 -1
 0.56306926565152E+00  0.63900884773804E+00  0.76401400982878E-02  0.18850235030962E-02  0.14751427605787E-03 -1
 0.57739506606585E+00  0.63832213505098E+00  0.76568381350081E-02  0.18876779970946E-02  0.14171904830110E-03 -1
