# Reynolds:  0.42957E+05
# Mach:  0.34019E+00
#  r/R          c/R          V (m/s)      AoA (deg)    beta (deg)   phi (deg)    Cl           Cd           s factor     Ue (m/s)     dp/ds (Pa/m) delta (m)    delta* (m)   theta (m)    tau_w (Pa)   x trans/c    Ue (m/s)     dp/ds (Pa/m) delta (m)    delta* (m)   theta (m)    tau_w (Pa)   x trans/c
#  0.86450E+00  0.12277E+00  0.17998E+02  0.46076E+01  0.13016E+02  0.82757E+01  0.89207E+00  0.31260E-01  0.88417E-01  0.18350E+02  0.93095E+04  0.20033E-02  0.78324E-03  0.28516E-03  0.30853E+00  0.67510E+00 -0.16011E+02 -0.25501E+04  0.89311E-03  0.31802E-03  0.11142E-03  0.44024E+00  0.10000E+01
#  x/c                -Cp                    delta*/c              theta/c               Cf                    BC
 0.99206706157050E+00 -0.41687543775181E-01  0.97081567878493E-02  0.29477160026789E-02  0.24035603650950E-02  1
 0.97620309436915E+00 -0.63828405896662E-01  0.10691661064297E-01  0.31499779023147E-02  0.15027482822905E-02  1
 0.96034511791188E+00 -0.85447739252732E-01  0.12043789226211E-01  0.33538913272762E-02  0.71676885478567E-03  1
 0.94449712435965E+00 -0.98717120374991E-01  0.12954135489232E-01  0.34213960395422E-02  0.34028132108479E-03  1
 0.92866310336034E+00 -0.10812401159492E+00  0.11934718175545E-01  0.33092034846435E-02  0.63807975342721E-03  1
 0.91284704104426E+00 -0.11622059631601E+00  0.97960512867500E-02  0.31654746082117E-02  0.14455432911705E-02  1
 0.89705291902074E+00 -0.12395631364964E+00  0.88638168272797E-02  0.30671223110557E-02  0.19563915679898E-02  1
 0.88128471337577E+00 -0.13129849823425E+00  0.84057624032583E-02  0.29982370414726E-02  0.22274716251417E-02  1
 0.86554639367101E+00 -0.13753263189453E+00  0.81248450956097E-02  0.29446723996465E-02  0.23878447730929E-02  1
 0.84984192194451E+00 -0.14246632645341E+00  0.79154956372464E-02  0.28981391594156E-02  0.25021523996772E-02  1
 0.83417525171325E+00 -0.14614513717217E+00  0.77359402590479E-02  0.28547315812085E-02  0.26006773653832E-02  1
 0.81855032697790E+00 -0.14895799809422E+00  0.75743127827323E-02  0.28133025620414E-02  0.26908089644437E-02  1
 0.80297108122994E+00 -0.15105981271653E+00  0.74267491985156E-02  0.27734850294692E-02  0.27744357657182E-02  1
 0.78744143646137E+00 -0.15272705602448E+00  0.72917004011657E-02  0.27351348041246E-02  0.28509578273997E-02  1
 0.77196530217744E+00 -0.15407579429329E+00  0.71664257728379E-02  0.26979469212181E-02  0.29218292637098E-02  1
 0.75654657441241E+00 -0.15519790905678E+00  0.70461269643140E-02  0.26613625173555E-02  0.29912733262803E-02  1
 0.74118913474876E+00 -0.15605856734064E+00  0.69250653994894E-02  0.26247108337947E-02  0.30659512154622E-02  1
 0.72589684934000E+00 -0.15667833886100E+00  0.67999502152701E-02  0.25876188330904E-02  0.31503763432986E-02  1
 0.71067356793742E+00 -0.15711015643519E+00  0.66721904151300E-02  0.25502835693358E-02  0.32436747762071E-02  1
 0.69552312292093E+00 -0.15751930896411E+00  0.65476195009761E-02  0.25134445725831E-02  0.33383102122670E-02  1
 0.68044932833424E+00 -0.15804055553945E+00  0.64320318320173E-02  0.24778314710778E-02  0.34254873391921E-02  1
 0.66545597892474E+00 -0.15869458905299E+00  0.63269411647379E-02  0.24436168988522E-02  0.35015047020915E-02  1
 0.65054684918818E+00 -0.15944692020735E+00  0.62303646081035E-02  0.24105110408509E-02  0.35678637273709E-02  1
 0.63572569241844E+00 -0.16021980656828E+00  0.61389280438470E-02  0.23780429420674E-02  0.36287357592685E-02  1
 0.62099623976269E+00 -0.16096380153736E+00  0.60498336399799E-02  0.23458268283526E-02  0.36880637680586E-02  1
 0.60636219928208E+00 -0.16166906435874E+00  0.59619718063021E-02  0.23137063209339E-02  0.37473941378087E-02  1
 0.59182725501823E+00 -0.16233753096122E+00  0.58751503500394E-02  0.22816476933614E-02  0.38069310118994E-02  1
 0.57739506606585E+00 -0.16297775290766E+00  0.57893908704620E-02  0.22496443691693E-02  0.38664594862671E-02  1
 0.56306926565152E+00 -0.16358512542662E+00  0.57045114605701E-02  0.22176623397544E-02  0.39261895216644E-02  1
 0.54885346021908E+00 -0.16415765284451E+00  0.56201561492511E-02  0.21856457595277E-02  0.39866445752988E-02  1
 0.53475122852174E+00 -0.16468514940432E+00  0.55359291451771E-02  0.21535360075123E-02  0.40485686427118E-02  1
 0.52076612072110E+00 -0.16516917526765E+00  0.54515835762919E-02  0.21212964083697E-02  0.41124444269338E-02  1
 0.50690165749346E+00 -0.16560696647885E+00  0.53670434224796E-02  0.20889138908668E-02  0.41785186920709E-02  1
 0.49316132914349E+00 -0.16600516975017E+00  0.52821778171087E-02  0.20563688986103E-02  0.42471222195219E-02  1
 0.47954859472556E+00 -0.16634493660606E+00  0.51961478618424E-02  0.20235540470923E-02  0.43203130570692E-02  1
 0.46606688117296E+00 -0.16658871489253E+00  0.51066209964465E-02  0.19901841943111E-02  0.44039447041945E-02  1
 0.45271958243516E+00 -0.16665180987392E+00  0.50101024790174E-02  0.19558563893348E-02  0.45079047638580E-02  1
 0.43951005862344E+00 -0.16653365421353E+00  0.49051602719155E-02  0.19204708515558E-02  0.46386843860946E-02  1
 0.42644163516494E+00 -0.16639500364052E+00  0.47963386064623E-02  0.18847162158692E-02  0.47881003002014E-02  1
 0.41351760196559E+00 -0.16657320678096E+00  0.46945345758696E-02  0.18500800094918E-02  0.49277218439862E-02  1
 0.40074121258179E+00 -0.16740014418864E+00  0.46110558097669E-02  0.18179861930223E-02  0.50214553982528E-02  1
 0.38811568340144E+00 -0.16878537113940E+00  0.45490456071832E-02  0.17885758244745E-02  0.50529223983179E-02  1
 0.37564419283416E+00 -0.17037511133425E+00  0.45016219907243E-02  0.17605419694709E-02  0.50365099955821E-02  1
 0.36332988051118E+00 -0.17161575899878E+00  0.44548679975268E-02  0.17317745546842E-02  0.50115094029852E-02  1
 0.35117584649495E+00 -0.17209081568416E+00  0.43952609530734E-02  0.17005314700942E-02  0.50198645292455E-02  1
 0.33918515049870E+00 -0.17184902453516E+00  0.43171553208990E-02  0.16663261228638E-02  0.50826453992371E-02  1
 0.32736081111621E+00 -0.17091979206514E+00  0.42194601210382E-02  0.16293092162681E-02  0.52109651293603E-02  1
 0.31570580506183E+00 -0.16948493196827E+00  0.41034665685551E-02  0.15899151165690E-02  0.54114794479013E-02  1
 0.30422306642118E+00 -0.16781569505760E+00  0.39756332527176E-02  0.15491886591168E-02  0.56743864761126E-02  1
 0.29291548591247E+00 -0.16644947550271E+00  0.38482417714886E-02  0.15088653231840E-02  0.59615885579827E-02  1
 0.28178591015877E+00 -0.16588233156566E+00  0.37334573477413E-02  0.14705713085670E-02  0.62209931138980E-02  1
 0.27083714097143E+00 -0.16609215020022E+00  0.36353015240932E-02  0.14347066795117E-02  0.64237237584710E-02  1
 0.26007193464468E+00 -0.16685716741008E+00  0.35505329702595E-02  0.14005809324985E-02  0.65717000702107E-02  1
 0.24949300126180E+00 -0.16770055626803E+00  0.34713932900572E-02  0.13668987554192E-02  0.66941227599413E-02  1
 0.23910300401284E+00 -0.16822597972963E+00  0.33889058870740E-02  0.13323497314498E-02  0.68347776752459E-02  1
 0.22890455852420E+00 -0.16828066539470E+00  0.32969890671577E-02  0.12962000399480E-02  0.70313607135121E-02  1
 0.21890023220013E+00 -0.16788696099404E+00  0.31936723974427E-02  0.12583876203250E-02  0.73076954844045E-02  1
 0.20909254357641E+00 -0.16738219083665E+00  0.30821192729406E-02  0.12195687216738E-02  0.76613600556179E-02  1
 0.19948396168636E+00 -0.16720408193101E+00  0.29686159510765E-02  0.11807726392403E-02  0.80658770213058E-02  1
 0.19007690543921E+00 -0.16767242675737E+00  0.28587939993434E-02  0.11428606032011E-02  0.84874990210116E-02  1
 0.18087374301120E+00 -0.16901708249351E+00  0.27559462001010E-02  0.11062769086527E-02  0.88969908827759E-02  1
 0.17187679124937E+00 -0.17109540322951E+00  0.26603164132101E-02  0.10709575550455E-02  0.92828949371882E-02  1
 0.16308831508836E+00 -0.17388569751595E+00  0.25717927616297E-02  0.10367310186534E-02  0.96334146100716E-02  1
 0.15451052698015E+00 -0.17722170047721E+00  0.24907978198193E-02  0.10034165709417E-02  0.99285954698743E-02  1
 0.14614558633716E+00 -0.18082789526654E+00  0.24161988043695E-02  0.97050697269779E-03  0.10160636890261E-01  1
 0.13799559898857E+00 -0.18410355667469E+00  0.23431265908696E-02  0.93694602799089E-03  0.10365618003819E-01  1
 0.13006261665022E+00 -0.18636499952494E+00  0.22633770134035E-02  0.90140767509471E-03  0.10635023788078E-01  1
 0.12234863640812E+00 -0.18741131156826E+00  0.21694449441553E-02  0.86301927922987E-03  0.11083502815338E-01  1
 0.11485560021564E+00 -0.18739382993773E+00  0.20574068026316E-02  0.82174638805799E-03  0.11831239319988E-01  1
 0.10758539440467E+00 -0.18745271780842E+00  0.19316115731123E-02  0.77891386000694E-03  0.12930209702116E-01  1
 0.10053984921075E+00 -0.18970862566322E+00  0.18053513976807E-02  0.73709376651902E-03  0.14273882205664E-01  1
 0.93720738312309E-01 -0.19588463557516E+00  0.16919200504677E-02  0.69863180847488E-03  0.15636142359748E-01  1
 0.87129778384140E-01 -0.20676029057344E+00  0.15967834045619E-02  0.66421382567609E-03  0.16806493211685E-01  1
 0.80768628665251E-01 -0.22047987459771E+00  0.15137477950377E-02  0.63237219311769E-03  0.17828032869997E-01  1
 0.74638890541154E-01 -0.23619406114771E+00  0.14344743888004E-02  0.60147023954969E-03  0.18875093477018E-01  1
 0.68742107140729E-01 -0.25392557488333E+00  0.13568345022754E-02  0.57116198122517E-03  0.20012312421470E-01  1
 0.63079762947743E-01 -0.27438933280272E+00  0.12823003149914E-02  0.54168683296454E-03  0.21185368658454E-01  1
 0.57653283427148E-01 -0.29709435384046E+00  0.12104929904135E-02  0.51287587832100E-03  0.22398797727227E-01  1
 0.52464034666217E-01 -0.32216732577338E+00  0.11400715140897E-02  0.48441466093735E-03  0.23701848741090E-01  1
 0.47513323030650E-01 -0.34961386879327E+00  0.10704904352416E-02  0.45617943143988E-03  0.25130447941579E-01  1
 0.42802394835693E-01 -0.38000902868589E+00  0.10019181087881E-02  0.42813440076641E-03  0.26680494922119E-01  1
 0.38332436032394E-01 -0.41302363902356E+00  0.93341244879778E-03  0.40009136380051E-03  0.28440956660225E-01  1
 0.34104571909040E-01 -0.44969773286227E+00  0.86506214662124E-03  0.37216347896557E-03  0.30459765393872E-01  1
 0.30119866807873E-01 -0.49068158441490E+00  0.79752152062960E-03  0.34465887309215E-03  0.32769089044302E-01  1
 0.26379323857149E-01 -0.53762348960256E+00  0.73258794512078E-03  0.31805199016097E-03  0.35248437766059E-01  1
 0.22883884718605E-01 -0.59001569511627E+00  0.67043910076515E-03  0.29252610674912E-03  0.37947098943049E-01  1
 0.19634429350400E-01 -0.64889295818500E+00  0.61255496851384E-03  0.26851986646629E-03  0.40717097664842E-01  1
 0.16631775785591E-01 -0.71234009644960E+00  0.55873167314869E-03  0.24615820336073E-03  0.43792000569818E-01  1
 0.13876679926199E-01 -0.77878020703126E+00  0.53741149630605E-03  0.23883679632096E-03  0.46158315788189E-01  1
 0.11369835352910E-01 -0.84327490560069E+00  0.68158857168745E-03  0.30439671769725E-03  0.32703834856448E-01  1
 0.91118731504758E-02 -0.90272097326527E+00  0.72076188825259E-03  0.32299263455545E-03  0.31582167600059E-01  1
 0.71033617488364E-02 -0.95003769402103E+00  0.53284722365440E-03  0.23853187816926E-03  0.10000274942978E-01  1
 0.53448067800247E-02 -0.97567258202657E+00  0.51592044058366E-03  0.23065910474535E-03  0.49500095427815E-02  1
 0.38366509508745E-02 -0.96523130922036E+00  0.36845572787070E-03  0.16454348685282E-03  0.76050755113818E-02  1
 0.25792739315716E-02 -0.90316850285480E+00  0.35594648261309E-03  0.15901411486285E-03  0.14249410375559E-01  1
 0.15729922600740E-02 -0.77362801954845E+00  0.34541188527947E-03  0.15476615596248E-03  0.27371661503306E-01  1
 0.81805926242545E-03 -0.56290405428796E+00  0.31750364138766E-03  0.14223475310553E-03  0.46116742107300E-01  1
 0.31466498898136E-03 -0.29107490071100E+00  0.27761301643759E-03  0.12439922628474E-03  0.71140232442261E-01  1

 0.12587233313022E-03 -0.48296591917865E-01  0.27864546858651E-03  0.12366494552125E-03  0.82934140702423E-01  1
 0.31466498898136E-03  0.98273997871446E-01  0.32598506439346E-03  0.13691399725045E-03  0.68878365260813E-01  1
 0.81805926242545E-03  0.18149484503340E+00  0.42007218694223E-03  0.16899025985834E-03  0.51319229796081E-01  1
 0.15729922600740E-02  0.29417779026695E+00  0.49614352068671E-03  0.20322215253797E-03  0.48917368965598E-01  1
 0.25792739315716E-02  0.47464416176601E+00  0.52311616285762E-03  0.22250463114890E-03  0.55544162428873E-01  1
 0.38366509508745E-02  0.69162419361106E+00  0.53932854585533E-03  0.23340107153410E-03  0.61239742748112E-01  1
 0.53448067800247E-02  0.88706615589018E+00  0.57072271723562E-03  0.24519916165377E-03  0.61018521337702E-01  1
 0.71033617488364E-02  0.10199292835086E+01  0.63136036695615E-03  0.26374195315236E-03  0.54131048304336E-01  1
 0.91118731504758E-02  0.10832601177207E+01  0.72197739147201E-03  0.29008803060672E-03  0.44272914579212E-01  1
 0.11369835352910E-01  0.11118302514313E+01  0.82046491575250E-03  0.31979496032888E-03  0.36729864506498E-01  1
 0.13876679926199E-01  0.11367047392947E+01  0.90104589560708E-03  0.34844363183411E-03  0.33251318921120E-01  1
 0.16631775785591E-01  0.11718879540083E+01  0.95694506866226E-03  0.37352975760098E-03  0.32543787225725E-01  1
 0.19634429350400E-01  0.12109372915550E+01  0.10089180040157E-02  0.39695575066153E-03  0.31951279515896E-01  1
 0.22883884718605E-01  0.12407232640903E+01  0.10806242420462E-02  0.42262886309240E-03  0.29742994096885E-01  1
 0.26379323857149E-01  0.12506152447544E+01  0.11846234203361E-02  0.45309944314968E-03  0.25828575885561E-01  1
 0.30119866807873E-01  0.12417667703125E+01  0.13223207016113E-02  0.48863960254030E-03  0.21192021034716E-01  1
 0.34104571909040E-01  0.12209316089499E+01  0.14782499329297E-02  0.52688360619217E-03  0.17146180533818E-01  1
 0.38332436032394E-01  0.12014857915019E+01  0.16059851281107E-02  0.56284554588903E-03  0.15037403361994E-01  1
 0.42802394835693E-01  0.11945555937779E+01  0.16659851111356E-02  0.59256983167049E-03  0.15175341711845E-01  1
 0.47513323030650E-01  0.11996441545735E+01  0.16816045631084E-02  0.61645930635403E-03  0.16422600554146E-01  1
 0.52464034666217E-01  0.12103849627774E+01  0.16981774770451E-02  0.63821058561785E-03  0.17454164806518E-01  1
 0.57653283427148E-01  0.12199616332576E+01  0.17377281027936E-02  0.66115846211803E-03  0.17678616737546E-01  1
 0.63079762947743E-01  0.12259101889475E+01  0.17995795167883E-02  0.68626841788309E-03  0.17225258048222E-01  1
 0.68742107140729E-01  0.12291940386302E+01  0.18737598223448E-02  0.71286132122391E-03  0.16484270131858E-01  1
 0.74638890541154E-01  0.12310720863650E+01  0.19514815317252E-02  0.74002334387307E-03  0.15729731578245E-01  1
 0.80768628665251E-01  0.12323043047933E+01  0.20292388001110E-02  0.76732323658265E-03  0.15044897396999E-01  1
 0.87129778384140E-01  0.12325750693373E+01  0.21080065699015E-02  0.79485449638353E-03  0.14399423435077E-01  1
 0.93720738312309E-01  0.12316420600366E+01  0.21896511026178E-02  0.82284516458497E-03  0.13757157855438E-01  1
 0.10053984921075E+00  0.12293534911125E+01  0.22744472917640E-02  0.85134550207577E-03  0.13118593055598E-01  1
 0.10758539440467E+00  0.12260891980883E+01  0.23608798362288E-02  0.88018364410149E-03  0.12512604272984E-01  1
 0.11485560021564E+00  0.12221636604921E+01  0.24467874292865E-02  0.90909340263157E-03  0.11967447678610E-01  1
 0.12234863640812E+00  0.12180424711923E+01  0.25295069874623E-02  0.93773147205197E-03  0.11509307713304E-01  1
 0.13006261665022E+00  0.12142236590603E+01  0.26062687005981E-02  0.96572162486804E-03  0.11157519608673E-01  1
 0.13799559898857E+00  0.12111212015482E+01  0.26750791589578E-02  0.99274730872836E-03  0.10917637229428E-01  1
 0.14614558633716E+00  0.12089554820738E+01  0.27369147051490E-02  0.10188179489331E-02  0.10761652396632E-01  1
 0.15451052698015E+00  0.12071926988985E+01  0.27970352670542E-02  0.10444695057157E-02  0.10620930011243E-01  1
 0.16308831508836E+00  0.12049902150977E+01  0.28618025133325E-02  0.10704671501708E-02  0.10427548527496E-01  1
 0.17187679124937E+00  0.12016985712735E+01  0.29365433410988E-02  0.10975404686674E-02  0.10137772183997E-01  1
 0.18087374301120E+00  0.11965978535058E+01  0.30253289007834E-02  0.11262912978278E-02  0.97311194734816E-02  1
 0.19007690543921E+00  0.11892775168454E+01  0.31333871318302E-02  0.11574127200679E-02  0.91885959407327E-02  1
 0.19948396168636E+00  0.11787415231531E+01  0.32674275555952E-02  0.11916555674461E-02  0.84934599262048E-02  1
 0.20909254357641E+00  0.11648685004666E+01  0.34329757533188E-02  0.12294407570571E-02  0.76589843302110E-02  1
 0.21890023220013E+00  0.11477016290759E+01  0.36285806796525E-02  0.12702456537303E-02  0.67536292269527E-02  1
 0.22890455852420E+00  0.11290319816369E+01  0.38368183726385E-02  0.13120941871545E-02  0.59164018552391E-02  1
 0.23910300401284E+00  0.11106731327464E+01  0.40294988143743E-02  0.13525904080881E-02  0.52757026754755E-02  1
 0.24949300126180E+00  0.10935181295128E+01  0.41842962281766E-02  0.13902450127004E-02  0.48790371063033E-02  1
 0.26007193464468E+00  0.10774697241053E+01  0.42989929826398E-02  0.14249956847486E-02  0.46822346287900E-02  1
 0.27083714097143E+00  0.10617549361837E+01  0.43854943557008E-02  0.14575556236580E-02  0.46064449729723E-02  1
 0.28178591015877E+00  0.10459176900054E+01  0.44510162995450E-02  0.14882398064549E-02  0.46088087166576E-02  1
 0.29291548591247E+00  0.10299128380902E+01  0.44956871792584E-02  0.15167918547999E-02  0.46821149157251E-02  1
 0.30422306642118E+00  0.10130315951977E+01  0.45289348573771E-02  0.15436403269900E-02  0.47889013302627E-02  1
 0.31570580506183E+00  0.99315135614444E+00  0.45836147735595E-02  0.15714133560033E-02  0.48100917396936E-02  1
 0.32736081111621E+00  0.96635664141616E+00  0.47030417735689E-02  0.16040270481426E-02  0.46033372295925E-02  1
 0.33918515049870E+00  0.93183322947340E+00  0.49385321133088E-02  0.16453169921640E-02  0.40637136002344E-02  1
 0.35117584649495E+00  0.89212863408015E+00  0.53842298795730E-02  0.16979356877476E-02  0.31149136301313E-02  1
 0.36332988051118E+00  0.85445357344432E+00  0.62432549617892E-02  0.17636121965023E-02  0.17886476764534E-02  1
 0.37564419283416E+00  0.82498407461013E+00  0.66309578702082E-02  0.18223589140326E-02  0.12515360236953E-02  1
 0.38811568340144E+00  0.80527830479972E+00  0.73575519770283E-02  0.18872425351614E-02  0.43746978734036E-03 -1
 0.40074121258179E+00  0.79490277187174E+00  0.76192844583697E-02  0.19451109231432E-02  0.38880807774079E-03 -1
 0.41351760196559E+00  0.78987993511284E+00  0.78922483630111E-02  0.20065066264710E-02  0.34850314121843E-03 -1
 0.42644163516494E+00  0.78779569791046E+00  0.81783764916424E-02  0.20717684515669E-02  0.31436131105567E-03 -1
 0.43951005862344E+00  0.78674586921997E+00  0.84733163118322E-02  0.21396548175242E-02  0.28499219902018E-03 -1
 0.45271958243516E+00  0.78609831688651E+00  0.87741826453182E-02  0.22093515912705E-02  0.25946311491872E-03 -1
 0.46606688117296E+00  0.78556457145774E+00  0.90844780460890E-02  0.22816939035644E-02  0.23699573466733E-03 -1
 0.47954859472556E+00  0.78508295950681E+00  0.94102109330649E-02  0.23581504409255E-02  0.21704223523137E-03 -1
 0.49316132914349E+00  0.78462972282529E+00  0.97564090613817E-02  0.24399537392066E-02  0.19925062678045E-03 -1
 0.50690165749346E+00  0.78420353608814E+00  0.10127741812294E-01  0.25282683358036E-02  0.18339484780106E-03 -1
 0.52076612072110E+00  0.78380042137880E+00  0.10528981122533E-01  0.26242765540091E-02  0.16927522091314E-03 -1
 0.53475122852174E+00  0.78342204389796E+00  0.10954957632309E-01  0.27266442447706E-02  0.15683179627571E-03 -1
 0.54885346021908E+00  0.78306484803727E+00  0.11371894292005E-01  0.28268696491408E-02  0.14619376737253E-03 -1
 0.56306926565152E+00  0.78272925416088E+00  0.11736808231049E-01  0.29142565633150E-02  0.13736521938623E-03 -1
 0.57739506606585E+00  0.78241075911456E+00  0.12030855984045E-01  0.29842213331511E-02  0.13012188442693E-03 -1
